depth [m],temp [K]
10,-53.78
15,-53.91
20,-54.03
25,-54.14
30,-54.23
35,-54.3
40,-54.35
45,-54.37
50,-54.37
55,-54.37
60,-54.35
65,-54.32
70,-54.3
75,-54.26
80,-54.22
85,-54.19
90,-54.16
95,-54.11
100,-54.08
105,-54.05
110,-54.02
115,-53.98
120,-53.94
125,-53.9
130,-53.87
135,-53.83
140,-53.79
145,-53.75
150,-53.71
155,-53.67
160,-53.63
165,-53.58
170,-53.54
175,-53.5
180,-53.46
185,-53.41
190,-53.37
195,-53.33
200,-53.28
205,-53.24
210,-53.19
215,-53.15
220,-53.1
225,-53.06
230,-53.01
235,-52.97
240,-52.92
245,-52.87
250,-52.83
255,-52.78
260,-52.73
265,-52.69
270,-52.64
275,-52.59
280,-52.55
285,-52.5
290,-52.45
295,-52.41
300,-52.36
305,-52.31
310,-52.26
315,-52.22
320,-52.17
325,-52.12
330,-52.07
335,-52.02
340,-51.98
345,-51.93
350,-51.88
355,-51.83
360,-51.78
365,-51.73
370,-51.69
375,-51.64
380,-51.59
385,-51.54
390,-51.49
395,-51.44
400,-51.39
405,-51.34
410,-51.29
415,-51.25
420,-51.2
425,-51.15
430,-51.1
435,-51.05
440,-51
445,-50.95
450,-50.9
455,-50.85
460,-50.8
465,-50.75
470,-50.7
475,-50.65
480,-50.6
485,-50.55
490,-50.5
495,-50.45
500,-50.39
505,-50.34
510,-50.29
515,-50.24
520,-50.19
525,-50.14
530,-50.09
535,-50.04
540,-49.99
545,-49.93
550,-49.88
555,-49.83
560,-49.78
565,-49.73
570,-49.68
575,-49.63
580,-49.57
585,-49.52
590,-49.47
595,-49.41
600,-49.36
605,-49.31
610,-49.26
615,-49.2
620,-49.15
625,-49.1
630,-49.04
635,-48.99
640,-48.94
645,-48.88
650,-48.83
655,-48.77
660,-48.72
665,-48.67
670,-48.61
675,-48.56
680,-48.5
685,-48.45
690,-48.39
695,-48.34
700,-48.28
705,-48.23
710,-48.17
715,-48.12
720,-48.06
725,-48
730,-47.95
735,-47.89
740,-47.84
745,-47.78
750,-47.72
755,-47.67
760,-47.61
765,-47.56
770,-47.5
775,-47.44
780,-47.38
785,-47.33
790,-47.27
795,-47.21
800,-47.15
805,-47.1
810,-47.04
815,-46.98
820,-46.92
825,-46.86
830,-46.8
835,-46.75
840,-46.69
845,-46.63
850,-46.57
855,-46.51
860,-46.45
865,-46.39
870,-46.33
875,-46.27
880,-46.21
885,-46.15
890,-46.09
895,-46.03
900,-45.97
905,-45.91
910,-45.85
915,-45.79
920,-45.73
925,-45.67
930,-45.61
935,-45.55
940,-45.49
945,-45.42
950,-45.36
955,-45.3
960,-45.24
965,-45.18
970,-45.11
975,-45.05
980,-44.99
985,-44.93
990,-44.86
995,-44.8
1000,-44.74
1005,-44.68
1010,-44.61
1015,-44.55
1020,-44.48
1025,-44.42
1030,-44.36
1035,-44.29
1040,-44.23
1045,-44.16
1050,-44.1
1055,-44.03
1060,-43.97
1065,-43.9
1070,-43.84
1075,-43.77
1080,-43.71
1085,-43.64
1090,-43.57
1095,-43.51
1100,-43.44
1105,-43.38
1110,-43.31
1115,-43.24
1120,-43.18
1125,-43.11
1130,-43.05
1135,-42.97
1140,-42.9
1145,-42.84
1150,-42.77
1155,-42.71
1160,-42.64
1165,-42.57
1170,-42.5
1175,-42.44
1180,-42.37
1185,-42.29
1190,-42.23
1195,-42.16
1200,-42.09
1205,-42.02
1210,-41.95
1215,-41.88
1220,-41.81
1225,-41.74
1230,-41.67
1235,-41.6
1240,-41.53
1245,-41.46
1250,-41.39
1255,-41.32
1260,-41.25
1265,-41.17
1270,-41.1
1275,-41.03
1280,-40.96
1285,-40.89
1290,-40.81
1295,-40.75
1300,-40.67
1305,-40.6
1310,-40.53
1315,-40.45
1320,-40.38
1325,-40.31
1330,-40.23
1335,-40.16
1340,-40.09
1345,-40.01
1350,-39.94
1355,-39.87
1360,-39.79
1365,-39.72
1370,-39.64
1375,-39.57
1380,-39.49
1385,-39.42
1390,-39.34
1395,-39.27
1400,-39.19
1405,-39.12
1410,-39.04
1415,-38.97
1420,-38.89
1425,-38.81
1430,-38.74
1435,-38.66
1440,-38.58
1445,-38.51
1450,-38.43
1455,-38.35
1460,-38.28
1465,-38.2
1470,-38.12
1475,-38.04
1480,-37.97
1485,-37.89
1490,-37.81
1495,-37.73
1500,-37.65
1505,-37.57
1510,-37.49
1515,-37.42
1520,-37.34
1525,-37.26
1530,-37.18
1535,-37.1
1540,-37.02
1545,-36.94
1550,-36.86
1555,-36.78
1560,-36.7
1565,-36.62
1570,-36.54
1575,-36.45
1580,-36.37
1585,-36.29
1590,-36.21
1595,-36.13
1600,-36.05
1605,-35.96
1610,-35.88
1615,-35.8
1620,-35.72
1625,-35.64
1630,-35.55
1635,-35.47
1640,-35.39
1645,-35.31
1650,-35.22
1655,-35.14
1660,-35.05
1665,-34.97
1670,-34.89
1675,-34.8
1680,-34.72
1685,-34.63
1690,-34.55
1695,-34.47
1700,-34.38
1705,-34.29
1710,-34.21
1715,-34.12
1720,-34.04
1725,-33.95
1730,-33.87
1735,-33.78
1740,-33.7
1745,-33.61
1750,-33.52
1755,-33.44
1760,-33.35
1765,-33.26
1770,-33.18
1775,-33.09
1780,-33
1785,-32.92
1790,-32.83
1795,-32.74
1800,-32.66
1805,-32.57
1810,-32.48
1815,-32.39
1820,-32.3
1825,-32.21
1830,-32.12
1835,-32.03
1840,-31.95
1845,-31.86
1850,-31.77
1855,-31.68
1860,-31.59
1865,-31.5
1870,-31.41
1875,-31.32
1880,-31.23
1885,-31.14
1890,-31.05
1895,-30.96
1900,-30.87
1905,-30.78
1910,-30.68
1915,-30.59
1920,-30.5
1925,-30.41
1930,-30.32
1935,-30.23
1940,-30.14
1945,-30.05
1950,-29.95
1955,-29.86
1960,-29.76
1965,-29.67
1970,-29.58
1975,-29.49
1980,-29.39
1985,-29.3
1990,-29.2
1995,-29.11
2000,-29.02
2005,-28.92
2010,-28.83
2015,-28.73
2020,-28.64
2025,-28.54
2030,-28.45
2035,-28.36
2040,-28.26
2045,-28.16
2050,-28.07
2055,-27.97
2060,-27.88
2065,-27.78
2070,-27.69
2075,-27.59
2080,-27.49
2085,-27.4
2090,-27.3
2095,-27.21
2100,-27.11
2105,-27.01
2110,-26.92
2115,-26.82
2120,-26.72
2125,-26.62
2130,-26.53
2135,-26.43
2140,-26.33
2145,-26.23
2150,-26.14
2155,-26.04
2160,-25.94
2165,-25.84
2170,-25.74
2175,-25.64
2180,-25.55
2185,-25.45
2190,-25.35
2195,-25.25
2200,-25.15
2205,-25.05
2210,-24.95
2215,-24.86
2220,-24.76
2225,-24.65
2230,-24.56
2235,-24.46
2240,-24.36
2245,-24.26
2250,-24.16
2255,-24.06
2260,-23.96
2265,-23.86
2270,-23.76
2275,-23.66
2280,-23.56
2285,-23.45
2290,-23.35
2295,-23.25
2300,-23.15
2305,-23.05
2310,-22.95
2315,-22.85
2320,-22.74
2325,-22.64
2330,-22.54
2335,-22.44
2340,-22.34
2345,-22.24
2350,-22.13
2355,-22.03
2360,-21.93
2365,-21.83
2370,-21.73
2375,-21.62
2380,-21.52
2385,-21.42
2390,-21.31
2395,-21.21
2400,-21.11
2405,-21.01
2410,-20.9
2415,-20.8
2420,-20.69
2425,-20.59
2430,-20.49
2435,-20.39
2440,-20.28
2445,-20.18
2450,-20.07
2455,-19.97
2460,-19.87
2465,-19.76
2470,-19.66
2475,-19.55
2480,-19.45
2485,-19.34
2490,-19.24
2495,-19.13
2500,-19.03
2505,-18.92
2510,-18.82
2515,-18.71
2520,-18.61
2525,-18.5
2530,-18.4
2535,-18.29
2540,-18.18
2545,-18.08
2550,-17.97
2555,-17.87
2560,-17.76
2565,-17.65
2570,-17.55
2575,-17.44
2580,-17.34
2585,-17.23
2590,-17.12
2595,-17.02
2600,-16.91
2605,-16.81
2610,-16.7
2615,-16.59
2620,-16.49
2625,-16.38
2630,-16.27
2635,-16.17
2640,-16.06
2645,-15.95
2650,-15.84
2655,-15.74
2660,-15.63
2665,-15.52
2670,-15.41
2675,-15.31
2680,-15.2
2685,-15.09
2690,-14.98
2695,-14.88
2700,-14.77
2705,-14.66
2710,-14.55
2715,-14.44
2720,-14.34
2725,-14.23
2730,-14.12
2735,-14.01
2740,-13.9
2745,-13.79
2750,-13.68
2755,-13.58
2760,-13.47
2765,-13.36
2770,-13.25
2775,-13.14
2780,-13.03
2785,-12.92
2790,-12.82
2795,-12.71
2800,-12.6
2805,-12.49
2810,-12.38
2815,-12.27
2820,-12.16
2825,-12.05
2830,-11.94
2835,-11.84
2840,-11.73
2845,-11.62
2850,-11.51
2855,-11.4
2860,-11.29
2865,-11.18
2870,-11.07
2875,-10.96
2880,-10.85
2885,-10.74
2890,-10.63
2895,-10.53
2900,-10.42
2905,-10.31
2910,-10.2
2915,-10.09
2920,-9.98
2925,-9.87
2930,-9.76
2935,-9.65
2940,-9.54
2945,-9.43
2950,-9.32
2955,-9.21
2960,-9.11
2965,-8.99
2970,-8.88
2975,-8.77
2980,-8.66
2985,-8.56
2990,-8.45
2995,-8.34
3000,-8.23
3005,-8.12
3010,-8.01
3015,-7.9
3020,-7.79
3025,-7.68
3030,-7.57
3035,-7.46
3040,-7.35
3045,-7.24
3050,-7.13
3055,-7.02
3060,-6.91
3065,-6.8
3070,-6.69
3075,-6.58
3080,-6.47
3085,-6.36
3090,-6.25
3095,-6.14
3100,-6.03
3105,-5.92
3110,-5.81
3115,-5.7
3120,-5.59
3125,-5.48
3130,-5.37
3135,-5.26
3140,-5.15
3145,-5.04
3150,-4.93
3155,-4.82
3160,-4.71
3165,-4.59
3170,-4.48
3175,-4.37
3180,-4.26
3185,-4.15
3190,-4.04
3195,-3.92
3200,-3.81
3205,-3.7
3210,-3.59
3215,-3.47
3220,-3.36
3225,-3.25
3230,-3.13
3235,-3.02
3240,-2.91
3245,-2.79
3250,-2.68
3255,-2.57
3260,-2.45
3265,-2.34
3270,-2.23
3275,-2.11