depth [m],temp [K]
70.116,-29.973
70.146,-29.975
70.246,-29.975
70.336,-29.976
70.436,-29.98
70.546,-29.985
70.676,-29.991
70.815,-29.996
70.955,-30.001
71.095,-30.007
71.225,-30.012
71.355,-30.017
71.495,-30.021
71.625,-30.025
71.775,-30.028
71.915,-30.03
72.045,-30.033
72.175,-30.036
72.295,-30.038
72.424,-30.04
72.554,-30.041
72.674,-30.042
72.804,-30.043
72.924,-30.044
73.054,-30.044
73.184,-30.045
73.304,-30.046
73.424,-30.047
73.554,-30.047
73.674,-30.048
73.794,-30.048
73.923,-30.049
74.043,-30.049
74.163,-30.05
74.283,-30.05
74.413,-30.051
74.533,-30.052
74.653,-30.052
74.773,-30.053
74.903,-30.054
75.023,-30.054
75.143,-30.054
75.263,-30.055
75.413,-30.055
75.532,-30.055
75.662,-30.055
75.782,-30.056
75.902,-30.056
76.022,-30.056
76.152,-30.056
76.262,-30.056
76.392,-30.056
76.512,-30.056
76.632,-30.057
76.752,-30.057
76.872,-30.057
76.992,-30.057
77.111,-30.057
77.231,-30.057
77.351,-30.057
77.471,-30.057
77.591,-30.057
77.721,-30.057
77.841,-30.057
77.961,-30.057
78.081,-30.057
78.201,-30.058
78.321,-30.058
78.441,-30.058
78.561,-30.058
78.681,-30.058
78.8,-30.058
78.92,-30.058
79.07,-30.058
79.19,-30.058
79.31,-30.058
79.43,-30.058
79.55,-30.058
79.67,-30.058
79.79,-30.058
79.91,-30.058
80.03,-30.058
80.15,-30.058
80.28,-30.058
80.39,-30.057
80.519,-30.057
80.639,-30.057
80.759,-30.057
80.879,-30.057
80.999,-30.057
81.119,-30.057
81.239,-30.057
81.369,-30.057
81.479,-30.057
81.599,-30.057
81.729,-30.057
81.849,-30.056
81.969,-30.056
82.089,-30.056
82.208,-30.056
82.328,-30.056
82.448,-30.056
82.568,-30.056
82.688,-30.056
82.838,-30.056
82.958,-30.056
83.078,-30.056
83.198,-30.056
83.318,-30.056
83.438,-30.056
83.558,-30.056
83.678,-30.056
83.798,-30.056
83.918,-30.056
84.038,-30.056
84.167,-30.056
84.287,-30.056
84.407,-30.055
84.527,-30.055
84.647,-30.055
84.767,-30.055
84.887,-30.055
85.007,-30.055
85.127,-30.054
85.247,-30.054
85.367,-30.054
85.487,-30.054
85.607,-30.054
85.727,-30.053
85.857,-30.053
85.977,-30.053
86.096,-30.053
86.216,-30.053
86.336,-30.053
86.476,-30.052
86.606,-30.052
86.726,-30.052
86.846,-30.052
86.966,-30.052
87.086,-30.052
87.206,-30.051
87.326,-30.051
87.446,-30.051
87.576,-30.051
87.696,-30.051
87.816,-30.05
87.936,-30.05
88.056,-30.05
88.176,-30.05
88.295,-30.05
88.415,-30.05
88.535,-30.05
88.655,-30.049
88.775,-30.049
88.895,-30.049
89.015,-30.049
89.145,-30.049
89.265,-30.049
89.385,-30.048
89.505,-30.048
89.625,-30.048
89.745,-30.048
89.865,-30.048
89.985,-30.048
90.135,-30.048
90.255,-30.047
90.375,-30.047
90.494,-30.047
90.614,-30.047
90.734,-30.047
90.854,-30.047
90.984,-30.046
91.104,-30.046
91.224,-30.046
91.344,-30.046
91.464,-30.046
91.584,-30.046
91.704,-30.046
91.824,-30.045
91.944,-30.045
92.064,-30.045
92.184,-30.045
92.304,-30.045
92.424,-30.045
92.554,-30.044
92.674,-30.044
92.794,-30.044
92.914,-30.044
93.033,-30.044
93.153,-30.044
93.273,-30.043
93.393,-30.043
93.513,-30.043
93.633,-30.043
93.783,-30.042
93.903,-30.042
94.023,-30.042
94.143,-30.042
94.273,-30.042
94.393,-30.042
94.513,-30.042
94.633,-30.042
94.753,-30.042
94.873,-30.041
94.993,-30.041
95.113,-30.041
95.233,-30.041
95.353,-30.041
95.473,-30.041
95.593,-30.041
95.722,-30.041
95.842,-30.041
95.962,-30.041
96.082,-30.04
96.202,-30.04
96.322,-30.04
96.442,-30.04
96.562,-30.04
96.682,-30.04
96.802,-30.04
96.932,-30.04
97.042,-30.04
97.172,-30.04
97.292,-30.039
97.412,-30.039
97.562,-30.039
97.682,-30.039
97.802,-30.039
97.922,-30.039
98.042,-30.039
98.162,-30.039
98.282,-30.039
98.402,-30.039
98.522,-30.039
98.642,-30.039
98.762,-30.038
98.881,-30.038
99.001,-30.038
99.121,-30.038
99.241,-30.038
99.371,-30.038
99.491,-30.038
99.611,-30.038
99.731,-30.038
99.851,-30.038
99.971,-30.037
100.09,-30.037
100.21,-30.037
100.33,-30.037
100.46,-30.037
100.58,-30.037
100.7,-30.037
100.82,-30.037
100.94,-30.037
101.06,-30.037
101.21,-30.036
101.33,-30.036
101.45,-30.036
101.57,-30.036
101.69,-30.036
101.81,-30.036
101.93,-30.036
102.05,-30.036
102.17,-30.036
102.29,-30.036
102.41,-30.036
102.54,-30.035
102.66,-30.035
102.78,-30.035
102.9,-30.035
103.02,-30.035
103.14,-30.035
103.26,-30.035
103.38,-30.035
103.5,-30.035
103.63,-30.035
103.75,-30.035
103.87,-30.035
103.99,-30.035
104.11,-30.035
104.23,-30.035
104.35,-30.035
104.47,-30.035
104.59,-30.035
104.71,-30.035
104.86,-30.035
104.98,-30.035
105.1,-30.035
105.22,-30.035
105.34,-30.035
105.46,-30.035
105.58,-30.035
105.7,-30.035
105.83,-30.035
105.94,-30.035
106.07,-30.035
106.19,-30.035
106.31,-30.035
106.43,-30.035
106.55,-30.035
106.67,-30.035
106.79,-30.035
106.91,-30.035
107.04,-30.035
107.16,-30.035
107.28,-30.035
107.4,-30.035
107.52,-30.035
107.64,-30.035
107.76,-30.035
107.88,-30.035
108,-30.035
108.12,-30.035
108.24,-30.035
108.37,-30.035
108.51,-30.035
108.63,-30.036
108.75,-30.036
108.87,-30.036
109,-30.036
109.11,-30.036
109.24,-30.036
109.36,-30.036
109.48,-30.036
109.6,-30.036
109.72,-30.036
109.84,-30.036
109.96,-30.036
110.08,-30.036
110.2,-30.036
110.33,-30.036
110.45,-30.036
110.57,-30.036
110.69,-30.036
110.81,-30.036
110.93,-30.037
111.05,-30.037
111.17,-30.037
111.29,-30.037
111.41,-30.037
111.54,-30.037
111.65,-30.037
111.77,-30.037
111.9,-30.037
112.02,-30.037
112.16,-30.037
112.28,-30.037
112.4,-30.037
112.53,-30.037
112.65,-30.037
112.77,-30.038
112.89,-30.038
113.01,-30.038
113.13,-30.038
113.25,-30.038
113.37,-30.038
113.49,-30.038
113.62,-30.038
113.74,-30.038
113.86,-30.038
113.98,-30.038
114.1,-30.038
114.22,-30.038
114.34,-30.039
114.46,-30.039
114.58,-30.039
114.7,-30.039
114.82,-30.039
114.94,-30.039
115.06,-30.039
115.19,-30.039
115.31,-30.039
115.43,-30.039
115.55,-30.039
115.67,-30.04
115.79,-30.04
115.94,-30.04
116.06,-30.04
116.18,-30.04
116.3,-30.04
116.42,-30.04
116.54,-30.04
116.66,-30.04
116.78,-30.04
116.9,-30.041
117.03,-30.041
117.15,-30.041
117.27,-30.041
117.39,-30.041
117.51,-30.041
117.63,-30.041
117.75,-30.041
117.87,-30.041
117.99,-30.041
118.11,-30.042
118.23,-30.042
118.35,-30.042
118.47,-30.042
118.6,-30.042
118.72,-30.042
118.84,-30.042
118.96,-30.042
119.08,-30.042
119.2,-30.043
119.32,-30.043
119.44,-30.043
119.59,-30.043
119.71,-30.043
119.83,-30.043
119.95,-30.043
120.07,-30.043
120.19,-30.043
120.31,-30.043
120.44,-30.044
120.56,-30.044
120.68,-30.044
120.8,-30.044
120.92,-30.044
121.04,-30.044
121.16,-30.044
121.28,-30.044
121.4,-30.044
121.52,-30.044
121.64,-30.044
121.76,-30.044
121.89,-30.044
122.01,-30.044
122.13,-30.044
122.25,-30.045
122.37,-30.045
122.49,-30.045
122.61,-30.045
122.73,-30.045
122.85,-30.045
122.98,-30.045
123.09,-30.045
123.24,-30.046
123.36,-30.046
123.48,-30.046
123.61,-30.046
123.72,-30.046
123.84,-30.046
123.96,-30.046
124.09,-30.046
124.21,-30.047
124.33,-30.047
124.45,-30.047
124.57,-30.047
124.69,-30.047
124.81,-30.047
124.93,-30.047
125.05,-30.048
125.17,-30.048
125.29,-30.048
125.41,-30.048
125.54,-30.048
125.66,-30.048
125.78,-30.048
125.9,-30.048
126.02,-30.049
126.14,-30.049
126.26,-30.049
126.38,-30.049
126.5,-30.049
126.62,-30.049
126.77,-30.049
126.89,-30.05
127.01,-30.05
127.13,-30.05
127.25,-30.05
127.37,-30.05
127.49,-30.05
127.61,-30.05
127.73,-30.051
127.85,-30.051
127.97,-30.051
128.09,-30.051
128.22,-30.051
128.34,-30.051
128.46,-30.052
128.58,-30.052
128.7,-30.052
128.82,-30.052
128.94,-30.052
129.06,-30.052
129.18,-30.052
129.31,-30.053
129.42,-30.053
129.55,-30.053
129.67,-30.053
129.79,-30.053
129.91,-30.053
130.03,-30.053
130.15,-30.054
130.27,-30.054
130.42,-30.054
130.54,-30.054
130.66,-30.054
130.78,-30.054
130.9,-30.054
131.02,-30.055
131.14,-30.055
131.26,-30.055
131.38,-30.055
131.5,-30.055
131.62,-30.055
131.74,-30.055
131.87,-30.056
131.99,-30.056
132.11,-30.056
132.23,-30.056
132.35,-30.056
132.47,-30.056
132.59,-30.056
132.71,-30.057
132.83,-30.057
132.95,-30.057
133.07,-30.057
133.2,-30.057
133.32,-30.057
133.44,-30.057
133.56,-30.057
133.68,-30.058
133.8,-30.058
133.92,-30.058
134.06,-30.058
134.18,-30.058
134.3,-30.058
134.43,-30.058
134.55,-30.058
134.67,-30.058
134.79,-30.058
134.91,-30.058
135.03,-30.059
135.15,-30.059
135.27,-30.059
135.39,-30.059
135.52,-30.059
135.63,-30.059
135.76,-30.059
135.88,-30.059
136,-30.059
136.12,-30.059
136.24,-30.059
136.36,-30.059
136.48,-30.059
136.6,-30.059
136.72,-30.059
136.84,-30.059
136.96,-30.059
137.08,-30.06
137.2,-30.06
137.32,-30.06
137.45,-30.06
137.59,-30.06
137.71,-30.06
137.83,-30.06
137.95,-30.06
138.07,-30.06
138.2,-30.06
138.31,-30.06
138.44,-30.06
138.56,-30.06
138.68,-30.06
138.8,-30.06
138.92,-30.06
139.04,-30.06
139.16,-30.06
139.28,-30.06
139.4,-30.06
139.52,-30.06
139.64,-30.06
139.76,-30.06
139.89,-30.06
140.01,-30.06
140.13,-30.06
140.25,-30.061
140.37,-30.061
140.49,-30.061
140.61,-30.061
140.73,-30.061
140.85,-30.061
140.97,-30.061
141.1,-30.061
141.24,-30.061
141.35,-30.061
141.48,-30.061
141.6,-30.061
141.72,-30.061
141.84,-30.061
141.96,-30.061
142.08,-30.061
142.21,-30.061
142.33,-30.061
142.44,-30.061
142.57,-30.061
142.69,-30.062
142.81,-30.062
142.93,-30.062
143.05,-30.062
143.17,-30.062
143.29,-30.062
143.41,-30.062
143.53,-30.062
143.65,-30.062
143.77,-30.062
143.89,-30.062
144.01,-30.062
144.14,-30.063
144.25,-30.063
144.37,-30.063
144.5,-30.063
144.62,-30.063
144.74,-30.063
144.86,-30.063
145,-30.063
145.13,-30.063
145.25,-30.063
145.37,-30.063
145.49,-30.064
145.61,-30.064
145.73,-30.064
145.85,-30.064
145.97,-30.064
146.09,-30.064
146.21,-30.064
146.33,-30.064
146.46,-30.064
146.58,-30.064
146.7,-30.064
146.82,-30.065
146.94,-30.065
147.06,-30.065
147.19,-30.065
147.3,-30.065
147.42,-30.065
147.54,-30.065
147.66,-30.065
147.78,-30.065
147.9,-30.065
148.02,-30.065
148.15,-30.066
148.27,-30.066
148.39,-30.066
148.53,-30.066
148.65,-30.066
148.77,-30.066
148.9,-30.066
149.02,-30.066
149.13,-30.066
149.26,-30.066
149.38,-30.066
149.5,-30.066
149.62,-30.067
149.74,-30.067
149.86,-30.067
149.98,-30.067
150.11,-30.067
150.23,-30.067
150.35,-30.067
150.47,-30.067
150.6,-30.067
150.71,-30.067
150.83,-30.067
150.96,-30.067
151.08,-30.067
151.2,-30.067
151.32,-30.068
151.44,-30.068
151.56,-30.068
151.68,-30.068
151.8,-30.068
151.92,-30.068
152.05,-30.068
152.19,-30.068
152.31,-30.068
152.43,-30.068
152.55,-30.068
152.68,-30.068
152.79,-30.068
152.91,-30.068
153.04,-30.068
153.16,-30.068
153.28,-30.069
153.4,-30.069
153.52,-30.069
153.64,-30.069
153.76,-30.069
153.88,-30.069
154,-30.069
154.12,-30.069
154.24,-30.069
154.36,-30.069
154.48,-30.069
154.61,-30.069
154.73,-30.069
154.85,-30.069
154.97,-30.069
155.09,-30.069
155.21,-30.069
155.33,-30.069
155.45,-30.07
155.57,-30.07
155.69,-30.07
155.84,-30.07
155.96,-30.07
156.08,-30.07
156.2,-30.07
156.32,-30.07
156.44,-30.07
156.56,-30.07
156.68,-30.07
156.8,-30.07
156.92,-30.07
157.04,-30.07
157.16,-30.07
157.29,-30.07
157.41,-30.07
157.52,-30.07
157.65,-30.07
157.77,-30.07
157.89,-30.071
158.01,-30.071
158.13,-30.071
158.25,-30.071
158.37,-30.071
158.49,-30.071
158.61,-30.071
158.73,-30.071
158.86,-30.071
158.98,-30.071
159.1,-30.071
159.22,-30.071
159.34,-30.071
159.48,-30.071
159.6,-30.071
159.73,-30.071
159.85,-30.071
159.97,-30.071
160.09,-30.071
160.21,-30.071
160.33,-30.071
160.45,-30.071
160.57,-30.072
160.69,-30.072
160.81,-30.072
160.93,-30.072
161.05,-30.072
161.17,-30.072
161.3,-30.072
161.42,-30.072
161.54,-30.072
161.66,-30.072
161.78,-30.072
161.9,-30.072
162.02,-30.072
162.14,-30.072
162.26,-30.072
162.38,-30.072
162.5,-30.072
162.62,-30.072
162.74,-30.072
162.87,-30.072
162.99,-30.072
163.13,-30.072
163.25,-30.072
163.37,-30.072
163.49,-30.072
163.61,-30.073
163.73,-30.073
163.85,-30.073
163.98,-30.073
164.1,-30.073
164.21,-30.073
164.34,-30.073
164.46,-30.073
164.58,-30.073
164.7,-30.073
164.82,-30.073
164.94,-30.073
165.06,-30.073
165.19,-30.073
165.3,-30.073
165.42,-30.073
165.54,-30.073
165.67,-30.073
165.79,-30.073
165.91,-30.073
166.03,-30.073
166.15,-30.073
166.27,-30.073
166.39,-30.073
166.51,-30.073
166.65,-30.073
166.78,-30.073
166.89,-30.073
167.02,-30.073
167.14,-30.073
167.26,-30.073
167.38,-30.074
167.5,-30.074
167.62,-30.074
167.74,-30.074
167.86,-30.074
167.98,-30.074
168.11,-30.074
168.23,-30.074
168.35,-30.074
168.48,-30.074
168.6,-30.074
168.72,-30.074
168.84,-30.074
168.96,-30.074
169.08,-30.074
169.2,-30.074
169.32,-30.074
169.44,-30.074
169.56,-30.074
169.68,-30.074
169.8,-30.074
169.92,-30.074
170.04,-30.074
170.19,-30.074
170.31,-30.074
170.43,-30.074
170.55,-30.074
170.67,-30.074
170.79,-30.074
170.91,-30.074
171.03,-30.074
171.16,-30.074
171.28,-30.074
171.4,-30.074
171.52,-30.074
171.64,-30.074
171.76,-30.074
171.88,-30.075
172,-30.075
172.12,-30.075
172.24,-30.075
172.36,-30.075
172.48,-30.075
172.6,-30.075
172.72,-30.075
172.84,-30.075
172.96,-30.075
173.08,-30.075
173.2,-30.075
173.32,-30.075
173.44,-30.075
173.56,-30.075
173.71,-30.075
173.83,-30.075
173.95,-30.075
174.07,-30.075
174.2,-30.075
174.32,-30.075
174.44,-30.075
174.56,-30.075
174.68,-30.075
174.8,-30.075
174.92,-30.075
175.04,-30.075
175.16,-30.075
175.28,-30.075
175.4,-30.075
175.52,-30.075
175.64,-30.075
175.76,-30.075
175.89,-30.075
176,-30.075
176.12,-30.075
176.24,-30.075
176.37,-30.075
176.49,-30.075
176.61,-30.075
176.72,-30.075
176.85,-30.075
176.97,-30.075
177.09,-30.075
177.23,-30.075
177.36,-30.075
177.48,-30.075
177.6,-30.075
177.72,-30.075
177.84,-30.075
177.96,-30.075
178.08,-30.075
178.2,-30.075
178.32,-30.075
178.44,-30.075
178.56,-30.075
178.68,-30.075
178.8,-30.075
178.92,-30.076
179.05,-30.076
179.17,-30.076
179.29,-30.076
179.41,-30.076
179.53,-30.076
179.65,-30.076
179.77,-30.076
179.89,-30.076
180.01,-30.076
180.13,-30.076
180.25,-30.076
180.37,-30.076
180.49,-30.076
180.62,-30.076
180.74,-30.076
180.88,-30.076
181,-30.076
181.12,-30.076
181.24,-30.076
181.36,-30.076
181.48,-30.076
181.61,-30.076
181.74,-30.076
181.86,-30.076
181.98,-30.076
182.1,-30.076
182.22,-30.076
182.34,-30.076
182.46,-30.076
182.58,-30.076
182.7,-30.076
182.82,-30.076
182.94,-30.076
183.06,-30.076
183.18,-30.076
183.31,-30.076
183.42,-30.076
183.55,-30.076
183.67,-30.076
183.79,-30.076
183.91,-30.076
184.03,-30.076
184.15,-30.076
184.27,-30.076
184.39,-30.076
184.54,-30.076
184.66,-30.076
184.78,-30.076
184.9,-30.076
185.02,-30.076
185.14,-30.076
185.26,-30.076
185.38,-30.076
185.5,-30.076
185.62,-30.076
185.74,-30.076
185.87,-30.076
185.98,-30.076
186.11,-30.076
186.23,-30.076
186.35,-30.076
186.47,-30.076
186.59,-30.076
186.71,-30.076
186.83,-30.076
186.95,-30.076
187.07,-30.076
187.19,-30.076
187.32,-30.076
187.44,-30.076
187.56,-30.076
187.68,-30.076
187.8,-30.076
187.92,-30.076
188.04,-30.076
188.18,-30.076
188.3,-30.076
188.42,-30.076
188.55,-30.076
188.66,-30.076
188.79,-30.076
188.91,-30.076
189.03,-30.076
189.15,-30.076
189.27,-30.076
189.39,-30.076
189.51,-30.076
189.63,-30.076
189.75,-30.076
189.87,-30.076
189.99,-30.076
190.11,-30.076
190.24,-30.076
190.36,-30.076
190.48,-30.076
190.6,-30.076
190.72,-30.076
190.84,-30.076
190.96,-30.076
191.08,-30.076
191.2,-30.076
191.32,-30.076
191.44,-30.076
191.57,-30.075
191.68,-30.075
191.83,-30.075
191.95,-30.075
192.07,-30.075
192.19,-30.075
192.31,-30.075
192.43,-30.075
192.55,-30.075
192.69,-30.075
192.8,-30.075
192.93,-30.075
193.05,-30.075
193.17,-30.075
193.29,-30.075
193.41,-30.075
193.53,-30.075
193.65,-30.075
193.77,-30.075
193.89,-30.075
194.01,-30.075
194.14,-30.075
194.25,-30.075
194.38,-30.075
194.5,-30.075
194.62,-30.075
194.73,-30.075
194.86,-30.075
194.98,-30.075
195.1,-30.075
195.24,-30.075
195.36,-30.075
195.49,-30.075
195.61,-30.075
195.73,-30.075
195.85,-30.075
195.97,-30.075
196.09,-30.075
196.21,-30.075
196.33,-30.075
196.45,-30.075
196.57,-30.075
196.69,-30.075
196.82,-30.075
196.94,-30.075
197.06,-30.075
197.18,-30.075
197.3,-30.075
197.42,-30.075
197.54,-30.075
197.66,-30.075
197.78,-30.075
197.9,-30.075
198.02,-30.075
198.14,-30.075
198.26,-30.075
198.38,-30.074
198.5,-30.074
198.63,-30.074
198.75,-30.074
198.87,-30.074
199.01,-30.074
199.13,-30.074
199.25,-30.074
199.38,-30.074
199.5,-30.074
199.62,-30.074
199.74,-30.074
199.86,-30.074
199.98,-30.074
200.1,-30.074
200.22,-30.074
200.34,-30.074
200.47,-30.074
200.58,-30.074
200.71,-30.074
200.83,-30.074
200.95,-30.074
201.07,-30.074
201.19,-30.074
201.31,-30.074
201.43,-30.074
201.55,-30.074
201.67,-30.074
201.79,-30.074
201.91,-30.074
202.03,-30.074
202.16,-30.074
202.28,-30.074
202.4,-30.074
202.55,-30.074
202.67,-30.074
202.79,-30.074
202.91,-30.074
203.03,-30.073
203.15,-30.073
203.27,-30.073
203.4,-30.073
203.52,-30.073
203.64,-30.073
203.76,-30.073
203.88,-30.073
204,-30.073
204.12,-30.073
204.24,-30.073
204.36,-30.073
204.48,-30.073
204.6,-30.073
204.72,-30.073
204.84,-30.073
204.97,-30.073
205.09,-30.073
205.21,-30.073
205.33,-30.073
205.45,-30.073
205.57,-30.073
205.69,-30.073
205.81,-30.073
205.93,-30.073
206.06,-30.073
206.2,-30.073
206.32,-30.073
206.44,-30.073
206.56,-30.073
206.68,-30.073
206.8,-30.072
206.93,-30.072
207.05,-30.072
207.17,-30.072
207.29,-30.072
207.41,-30.072
207.53,-30.072
207.65,-30.072
207.77,-30.072
207.89,-30.072
208.01,-30.072
208.13,-30.072
208.25,-30.072
208.37,-30.072
208.49,-30.072
208.62,-30.072
208.74,-30.072
208.86,-30.072
208.98,-30.072
209.1,-30.072
209.22,-30.072
209.34,-30.072
209.46,-30.072
209.58,-30.072
209.7,-30.072
209.85,-30.072
209.97,-30.072
210.09,-30.072
210.21,-30.071
210.34,-30.071
210.45,-30.071
210.57,-30.071
210.7,-30.071
210.83,-30.071
210.95,-30.071
211.07,-30.071
211.19,-30.071
211.31,-30.071
211.43,-30.071
211.55,-30.071
211.67,-30.071
211.79,-30.071
211.91,-30.071
212.03,-30.071
212.15,-30.071
212.27,-30.071
212.4,-30.071
212.52,-30.071
212.64,-30.071
212.76,-30.071
212.88,-30.071
213,-30.071
213.12,-30.071
213.24,-30.07
213.39,-30.07
213.51,-30.07
213.63,-30.07
213.75,-30.07
213.87,-30.07
213.99,-30.07
214.11,-30.07
214.23,-30.07
214.35,-30.07
214.47,-30.07
214.59,-30.07
214.71,-30.07
214.84,-30.07
214.96,-30.07
215.08,-30.07
215.2,-30.07
215.32,-30.07
215.44,-30.07
215.56,-30.07
215.68,-30.07
215.8,-30.07
215.92,-30.07
216.05,-30.069
216.16,-30.069
216.29,-30.069
216.41,-30.069
216.53,-30.069
216.65,-30.069
216.77,-30.069
216.89,-30.069
217.04,-30.069
217.16,-30.069
217.28,-30.069
217.4,-30.069
217.52,-30.069
217.64,-30.069
217.76,-30.069
217.88,-30.069
218,-30.069
218.12,-30.069
218.24,-30.069
218.36,-30.069
218.48,-30.069
218.6,-30.068
218.73,-30.068
218.85,-30.068
218.98,-30.068
219.1,-30.068
219.22,-30.068
219.34,-30.068
219.46,-30.068
219.58,-30.068
219.7,-30.068
219.82,-30.068
219.94,-30.068
220.06,-30.068
220.19,-30.068
220.3,-30.068
220.43,-30.068
220.57,-30.068
220.69,-30.068
220.81,-30.068
220.93,-30.067
221.05,-30.067
221.17,-30.067
221.29,-30.067
221.41,-30.067
221.53,-30.067
221.66,-30.067
221.78,-30.067
221.89,-30.067
222.02,-30.067
222.14,-30.067
222.26,-30.067
222.38,-30.067
222.5,-30.067
222.62,-30.067
222.74,-30.067
222.86,-30.067
222.98,-30.067
223.1,-30.067
223.22,-30.066
223.34,-30.066
223.47,-30.066
223.59,-30.066
223.71,-30.066
223.83,-30.066
